#           x    enthalpy diffusivity temperature    porosity liquid_fraction 
-5.00000e+00 -3.04396e-07 +1.00001e+00 +7.21734e-07 +3.99982e-01 +1.28347e-05
-4.84375e+00 +9.64915e-03 +1.00730e+00 +9.62389e-03 +3.99982e-01 +1.38082e-05
-4.68750e+00 +1.92356e-02 +1.01443e+00 +1.91328e-02 +3.99982e-01 +1.48485e-05
-4.53125e+00 +2.87676e-02 +1.02140e+00 +2.85377e-02 +3.99982e-01 +1.59605e-05
-4.37500e+00 +3.82538e-02 +1.02823e+00 +3.78485e-02 +3.99982e-01 +1.71498e-05
-4.21875e+00 +4.77029e-02 +1.03493e+00 +4.70753e-02 +3.99982e-01 +1.84226e-05
-4.06250e+00 +5.71241e-02 +1.04152e+00 +5.62284e-02 +3.99977e-01 +1.97856e-05
-3.90625e+00 +6.65268e-02 +1.04800e+00 +6.53178e-02 +3.99971e-01 +2.12466e-05
-3.75000e+00 +7.59210e-02 +1.05439e+00 +7.43539e-02 +3.99963e-01 +2.28139e-05
-3.59375e+00 +8.53168e-02 +1.06068e+00 +8.33475e-02 +3.99952e-01 +2.44971e-05
-3.43750e+00 +9.47253e-02 +1.06690e+00 +9.23095e-02 +3.99938e-01 +2.63071e-05
-3.28125e+00 +1.04158e-01 +1.07305e+00 +1.01252e-01 +3.99918e-01 +2.82560e-05
-3.12500e+00 +1.13628e-01 +1.07916e+00 +1.10186e-01 +3.99892e-01 +3.03578e-05
-2.96875e+00 +1.23149e-01 +1.08523e+00 +1.19125e-01 +3.99855e-01 +3.26284e-05
-2.81250e+00 +1.32734e-01 +1.09128e+00 +1.28082e-01 +3.99803e-01 +3.50861e-05
-2.65625e+00 +1.42405e-01 +1.09734e+00 +1.37076e-01 +3.99727e-01 +3.77534e-05
-2.50000e+00 +1.52175e-01 +1.10346e+00 +1.46120e-01 +3.99612e-01 +4.06540e-05
-2.34375e+00 +1.62081e-01 +1.10970e+00 +1.55246e-01 +3.99428e-01 +4.38224e-05
-2.18750e+00 +1.72134e-01 +1.11619e+00 +1.64463e-01 +3.99115e-01 +4.72907e-05
-2.03125e+00 +1.82414e-01 +1.12324e+00 +1.73842e-01 +3.98525e-01 +5.11208e-05
-1.87500e+00 +1.92898e-01 +1.13172e+00 +1.83362e-01 +3.97200e-01 +5.53468e-05
-1.79688e+00 +1.98289e-01 +1.13745e+00 +1.88239e-01 +3.95777e-01 +5.76544e-05
-1.71875e+00 +2.03711e-01 +1.14577e+00 +1.93131e-01 +3.92985e-01 +6.00718e-05
-1.67969e+00 +2.06490e-01 +1.15186e+00 +1.95634e-01 +3.90594e-01 +6.13499e-05
-1.64062e+00 +2.09254e-01 +1.16034e+00 +1.98120e-01 +3.86932e-01 +6.26482e-05
-1.60156e+00 +2.12076e-01 +1.17149e+00 +2.00656e-01 +3.81892e-01 +6.40023e-05
-1.56250e+00 +2.14873e-01 +1.19136e+00 +2.03165e-01 +3.72253e-01 +6.53728e-05
-1.52344e+00 +2.17711e-01 +1.22018e+00 +2.05708e-01 +3.57946e-01 +6.67939e-05
-1.48438e+00 +2.20484e-01 +1.27610e+00 +2.08190e-01 +3.29408e-01 +6.82120e-05
-1.46484e+00 +2.21867e-01 +1.32095e+00 +2.09426e-01 +3.06300e-01 +6.89299e-05
-1.44531e+00 +2.23198e-01 +1.40113e+00 +2.10615e-01 +2.64657e-01 +6.96287e-05
-1.42578e+00 +2.24471e-01 +1.52656e+00 +2.11752e-01 +1.99312e-01 +7.03038e-05
-1.40625e+00 +2.25637e-01 +1.65924e+00 +2.12793e-01 +1.30197e-01 +7.09275e-05
-1.36719e+00 +2.27805e-01 +1.77731e+00 +2.14726e-01 +6.92588e-02 +7.21020e-05
-1.32812e+00 +2.29867e-01 +1.83144e+00 +2.16564e-01 +4.18375e-02 +7.32373e-05
-1.28906e+00 +2.31869e-01 +1.86264e+00 +2.18345e-01 +2.64250e-02 +7.43564e-05
-1.25000e+00 +2.33858e-01 +1.88190e+00 +2.20114e-01 +1.72694e-02 +7.54851e-05
-1.17188e+00 +2.37784e-01 +1.90398e+00 +2.23601e-01 +7.55143e-03 +7.77640e-05
-1.09375e+00 +2.41688e-01 +1.91559e+00 +2.27063e-01 +3.29232e-03 +8.00989e-05
-1.01562e+00 +2.45616e-01 +1.92274e+00 +2.30539e-01 +1.36361e-03 +8.25182e-05
-9.37500e-01 +2.49549e-01 +1.92768e+00 +2.34014e-01 +5.82897e-04 +8.50140e-05
-7.81250e-01 +2.57520e-01 +1.93550e+00 +2.41038e-01 +1.18580e-04 +9.03060e-05
-7.03125e-01 +2.61556e-01 +1.93911e+00 +2.44585e-01 +4.60987e-05 +9.31096e-05
-6.25000e-01 +2.65630e-01 +1.94263e+00 +2.48159e-01 +2.91562e-05 +9.60279e-05
-5.46875e-01 +2.69745e-01 +1.94616e+00 +2.51763e-01 +1.38970e-05 +9.90690e-05
-4.68750e-01 +2.73900e-01 +1.94969e+00 +2.55395e-01 +9.15313e-06 +1.02237e-04
-3.12500e-01 +2.82350e-01 +1.95680e+00 +2.62762e-01 +3.85153e-06 +1.08996e-04
+0.00000e+00 +2.99800e-01 +1.97122e+00 +2.77890e-01 +1.47368e-06 +1.24400e-04
+3.12500e-01 +3.18028e-01 +1.98593e+00 +2.93573e-01 +6.28986e-07 +1.42820e-04
+6.25000e-01 +3.37000e-01 +2.00089e+00 +3.09770e-01 +3.37302e-07 +1.64895e-04
+9.37500e-01 +3.56775e-01 +2.01610e+00 +3.26517e-01 +2.03915e-07 +1.91542e-04
+1.25000e+00 +3.77342e-01 +2.03153e+00 +3.43794e-01 +1.36217e-07 +2.23834e-04
+1.87500e+00 +4.21366e-01 +2.06328e+00 +3.80303e-01 +7.34809e-08 +3.12427e-04
+2.50000e+00 +4.69240e-01 +2.09596e+00 +4.19302e-01 +4.74821e-08 +4.48970e-04
+3.75000e+00 +5.78328e-01 +2.16384e+00 +5.05601e-01 +2.68883e-08 +1.02545e-03
+5.00000e+00 +7.09926e-01 +2.23461e+00 +6.05266e-01 +1.93394e-08 +2.77444e-03
+5.62500e+00 +7.85617e-01 +2.26984e+00 +6.60441e-01 +1.72480e-08 +4.91250e-03
+6.25000e+00 +8.72353e-01 +2.30469e+00 +7.21610e-01 +1.58899e-08 +9.43459e-03
+6.56250e+00 +9.19459e-01 +2.32069e+00 +7.53792e-01 +1.53634e-08 +1.34267e-02
+6.87500e+00 +9.71180e-01 +2.33536e+00 +7.88133e-01 +1.49180e-08 +1.97410e-02
+7.18750e+00 +1.02676e+00 +2.34697e+00 +8.23642e-01 +1.45336e-08 +2.97712e-02
+7.50000e+00 +1.08961e+00 +2.35351e+00 +8.61580e-01 +1.42073e-08 +4.70721e-02
+7.81250e+00 +1.16161e+00 +2.34966e+00 +9.01209e-01 +1.39296e-08 +7.85428e-02
+8.12500e+00 +1.25240e+00 +2.32150e+00 +9.43114e-01 +1.36999e-08 +1.44990e-01
+8.28125e+00 +1.31306e+00 +2.28466e+00 +9.64764e-01 +1.35822e-08 +2.11681e-01
+8.43750e+00 +1.39916e+00 +2.20665e+00 +9.86202e-01 +1.34710e-08 +3.40178e-01
+8.51562e+00 +1.46349e+00 +2.13470e+00 +9.96758e-01 +1.34230e-08 +4.56335e-01
+8.59375e+00 +1.53213e+00 +2.05833e+00 +1.00644e+00 +1.33783e-08 +5.85403e-01
+8.67188e+00 +1.58772e+00 +2.00749e+00 +1.01578e+00 +1.33352e-08 +6.82686e-01
+8.75000e+00 +1.62906e+00 +1.98028e+00 +1.02466e+00 +1.32930e-08 +7.46375e-01
+8.90625e+00 +1.69313e+00 +1.95893e+00 +1.04245e+00 +1.32065e-08 +8.27037e-01
+9.06250e+00 +1.74418e+00 +1.95951e+00 +1.06014e+00 +1.31237e-08 +8.75618e-01
+9.21875e+00 +1.78983e+00 +1.97142e+00 +1.07830e+00 +1.30458e-08 +9.08665e-01
+9.37500e+00 +1.83271e+00 +1.99064e+00 +1.09703e+00 +1.29747e-08 +9.32287e-01
+9.68750e+00 +1.91592e+00 +2.04423e+00 +1.13688e+00 +1.28606e-08 +9.62773e-01
+9.84375e+00 +1.95754e+00 +2.07674e+00 +1.15807e+00 +1.28017e-08 +9.72565e-01
+1.00000e+01 +2.00012e+00 +2.11267e+00 +1.18035e+00 +1.27448e-08 +9.79979e-01
+1.01562e+01 +2.04380e+00 +2.15160e+00 +1.20369e+00 +1.26937e-08 +9.85538e-01
+1.03125e+01 +2.08927e+00 +2.19372e+00 +1.22837e+00 +1.26466e-08 +9.89709e-01
+1.06250e+01 +2.18640e+00 +2.28715e+00 +1.28195e+00 +1.25626e-08 +9.95044e-01
+1.09375e+01 +2.29553e+00 +2.39510e+00 +1.34292e+00 +1.24887e-08 +9.97826e-01
+1.12500e+01 +2.42058e+00 +2.52043e+00 +1.41326e+00 +1.24217e-08 +9.99156e-01
+1.15625e+01 +2.56884e+00 +2.66983e+00 +1.49690e+00 +1.23541e-08 +9.99725e-01
+1.18750e+01 +2.74874e+00 +2.85145e+00 +1.59851e+00 +1.23124e-08 +9.99930e-01
+1.21875e+01 +2.96757e+00 +3.07249e+00 +1.72216e+00 +1.22558e-08 +9.99987e-01
+1.25000e+01 +3.21945e+00 +3.32693e+00 +1.86449e+00 +1.22217e-08 +9.99998e-01
+1.28125e+01 +3.47706e+00 +3.58715e+00 +2.01006e+00 +1.21729e-08 +1.00000e+00
+1.31250e+01 +3.68146e+00 +3.79363e+00 +2.12557e+00 +1.21468e-08 +1.00000e+00
+1.32812e+01 +3.74362e+00 +3.85643e+00 +2.16070e+00 +1.21898e-08 +1.00000e+00
+1.34375e+01 +3.77094e+00 +3.88403e+00 +2.17614e+00 +1.21157e-08 +1.00000e+00
+1.35938e+01 +3.75755e+00 +3.87050e+00 +2.16857e+00 +6.36653e-16 +1.00000e+00
+1.37500e+01 +3.70224e+00 +3.81463e+00 +2.13731e+00 +2.04921e-08 +1.00000e+00
+1.39062e+01 +3.60461e+00 +3.71601e+00 +2.08214e+00 +4.29362e-08 +1.00000e+00
+1.40625e+01 +3.46879e+00 +3.57880e+00 +2.00539e+00 +1.20155e-07 +1.00000e+00
+1.42188e+01 +3.29955e+00 +3.40785e+00 +1.90976e+00 -5.89535e-19 +9.99999e-01
+1.43750e+01 +3.10471e+00 +3.21102e+00 +1.79965e+00 +1.89549e-06 +9.99995e-01
+1.45312e+01 +2.89183e+00 +2.99595e+00 +1.67936e+00 +9.51000e-06 +9.99976e-01
+1.46875e+01 +2.66916e+00 +2.77095e+00 +1.55355e+00 +5.13849e-05 +9.99872e-01
+1.48438e+01 +2.44433e+00 +2.54361e+00 +1.42665e+00 +2.82082e-04 +9.99295e-01
+1.50000e+01 +2.22119e+00 +2.31779e+00 +1.30133e+00 +1.52493e-03 +9.96188e-01
+1.51562e+01 +2.00222e+00 +2.09783e+00 +1.18146e+00 +7.88443e-03 +9.80289e-01
+1.52344e+01 +1.88845e+00 +1.98779e+00 +1.12330e+00 +1.81800e-02 +9.54550e-01
+1.53125e+01 +1.76374e+00 +1.87772e+00 +1.06768e+00 +4.36464e-02 +8.90884e-01
+1.53516e+01 +1.68609e+00 +1.81835e+00 +1.04025e+00 +7.22880e-02 +8.19280e-01
+1.53906e+01 +1.58140e+00 +1.74865e+00 +1.01458e+00 +1.31113e-01 +6.72217e-01
+1.54102e+01 +1.48792e+00 +1.68744e+00 +1.00018e+00 +1.98997e-01 +5.02508e-01
+1.54297e+01 +1.39655e+00 +1.62236e+00 +9.85695e-01 +2.65701e-01 +3.35747e-01
+1.54492e+01 +1.33794e+00 +1.58086e+00 +9.72037e-01 +3.02065e-01 +2.44836e-01
+1.54688e+01 +1.29273e+00 +1.55129e+00 +9.58123e-01 +3.25155e-01 +1.87113e-01
+1.55078e+01 +1.22196e+00 +1.51138e+00 +9.30239e-01 +3.52531e-01 +1.18672e-01
+1.55469e+01 +1.16473e+00 +1.48493e+00 +9.02816e-01 +3.67891e-01 +8.02734e-02
+1.56250e+01 +1.07057e+00 +1.45002e+00 +8.50376e-01 +3.83596e-01 +4.10105e-02
+1.57812e+01 +9.19901e-01 +1.40501e+00 +7.54091e-01 +3.94612e-01 +1.34712e-02
+1.59375e+01 +7.98569e-01 +1.37019e+00 +6.69720e-01 +3.97833e-01 +5.41627e-03
+1.60938e+01 +6.96533e-01 +1.33900e+00 +5.95338e-01 +3.98997e-01 +2.50738e-03
+1.62500e+01 +6.09757e-01 +1.31023e+00 +5.29835e-01 +3.99480e-01 +1.30081e-03
+1.64062e+01 +5.35034e-01 +1.28340e+00 +4.71764e-01 +3.99704e-01 +7.38897e-04
+1.65625e+01 +4.70397e-01 +1.25841e+00 +4.20235e-01 +3.99819e-01 +4.52920e-04
+1.67188e+01 +4.14097e-01 +1.23514e+00 +3.74318e-01 +3.99882e-01 +2.95690e-04
+1.68750e+01 +3.64925e-01 +1.21352e+00 +3.33381e-01 +3.99918e-01 +2.03741e-04
+1.70312e+01 +3.21812e-01 +1.19348e+00 +2.96813e-01 +3.99941e-01 +1.46974e-04
+1.71875e+01 +2.83943e-01 +1.17497e+00 +2.64147e-01 +3.99956e-01 +1.10319e-04
+1.73438e+01 +2.50613e-01 +1.15791e+00 +2.34953e-01 +3.99966e-01 +8.57021e-05
+1.75000e+01 +2.21247e-01 +1.14224e+00 +2.08872e-01 +3.99973e-01 +6.86071e-05
+1.76562e+01 +1.95348e-01 +1.12789e+00 +1.85579e-01 +3.99977e-01 +5.63838e-05
+1.78125e+01 +1.72493e-01 +1.11479e+00 +1.64791e-01 +3.99981e-01 +4.74192e-05
+1.79688e+01 +1.52316e-01 +1.10286e+00 +1.46250e-01 +3.99982e-01 +4.06974e-05
+1.81250e+01 +1.34499e-01 +1.09204e+00 +1.29726e-01 +3.99982e-01 +3.55584e-05
+1.82812e+01 +1.18763e-01 +1.08224e+00 +1.15012e-01 +3.99982e-01 +3.15621e-05
+1.84375e+01 +1.04865e-01 +1.07340e+00 +1.01919e-01 +3.99982e-01 +2.84076e-05
+1.85938e+01 +9.25888e-02 +1.06542e+00 +9.02782e-02 +3.99982e-01 +2.58847e-05
+1.87500e+01 +8.17464e-02 +1.05825e+00 +7.99351e-02 +3.99982e-01 +2.38433e-05
+1.89062e+01 +7.21706e-02 +1.05182e+00 +7.07517e-02 +3.99982e-01 +2.21747e-05
+1.90625e+01 +6.37137e-02 +1.04606e+00 +6.26031e-02 +3.99982e-01 +2.07985e-05
+1.92188e+01 +5.62456e-02 +1.04091e+00 +5.53768e-02 +3.99982e-01 +1.96544e-05
+1.93750e+01 +4.96511e-02 +1.03630e+00 +4.89718e-02 +3.99982e-01 +1.86965e-05
+1.95312e+01 +4.38282e-02 +1.03220e+00 +4.32975e-02 +3.99982e-01 +1.78896e-05
+1.96875e+01 +3.86869e-02 +1.02854e+00 +3.82724e-02 +3.99982e-01 +1.72062e-05
+1.98438e+01 +3.41476e-02 +1.02529e+00 +3.38241e-02 +3.99982e-01 +1.66245e-05
+2.00000e+01 +3.01398e-02 +1.02239e+00 +2.98875e-02 +3.99982e-01 +1.61273e-05
+2.01562e+01 +2.66015e-02 +1.01982e+00 +2.64047e-02 +3.99982e-01 +1.57007e-05
+2.03125e+01 +2.34775e-02 +1.01754e+00 +2.33242e-02 +3.99982e-01 +1.53334e-05
+2.04688e+01 +2.07193e-02 +1.01552e+00 +2.05999e-02 +3.99982e-01 +1.50163e-05
+2.06250e+01 +1.82840e-02 +1.01372e+00 +1.81911e-02 +3.99982e-01 +1.47418e-05
+2.07812e+01 +1.61337e-02 +1.01213e+00 +1.60615e-02 +3.99982e-01 +1.45036e-05
+2.09375e+01 +1.42349e-02 +1.01072e+00 +1.41789e-02 +3.99982e-01 +1.42964e-05
+2.10938e+01 +1.25582e-02 +1.00947e+00 +1.25147e-02 +3.99982e-01 +1.41159e-05
+2.12500e+01 +1.10773e-02 +1.00837e+00 +1.10437e-02 +3.99982e-01 +1.39584e-05
+2.14062e+01 +9.76917e-03 +1.00739e+00 +9.74326e-03 +3.99982e-01 +1.38208e-05
+2.15625e+01 +8.61354e-03 +1.00652e+00 +8.59360e-03 +3.99982e-01 +1.37003e-05
+2.17188e+01 +7.59237e-03 +1.00575e+00 +7.57710e-03 +3.99982e-01 +1.35947e-05
+2.18750e+01 +6.68978e-03 +1.00508e+00 +6.67815e-03 +3.99982e-01 +1.35021e-05
+2.20312e+01 +5.89171e-03 +1.00447e+00 +5.88291e-03 +3.99982e-01 +1.34207e-05
+2.21875e+01 +5.18575e-03 +1.00394e+00 +5.17916e-03 +3.99982e-01 +1.33491e-05
+2.23438e+01 +4.56091e-03 +1.00347e+00 +4.55604e-03 +3.99982e-01 +1.32860e-05
+2.25000e+01 +4.00746e-03 +1.00305e+00 +4.00393e-03 +3.99982e-01 +1.32304e-05
+2.26562e+01 +3.51678e-03 +1.00268e+00 +3.51430e-03 +3.99982e-01 +1.31813e-05
+2.28125e+01 +3.08124e-03 +1.00235e+00 +3.07957e-03 +3.99982e-01 +1.31379e-05
+2.29688e+01 +2.69406e-03 +1.00206e+00 +2.69302e-03 +3.99982e-01 +1.30994e-05
+2.31250e+01 +2.34919e-03 +1.00179e+00 +2.34864e-03 +3.99982e-01 +1.30653e-05
+2.32812e+01 +2.04126e-03 +1.00156e+00 +2.04110e-03 +3.99982e-01 +1.30348e-05
+2.34375e+01 +1.76546e-03 +1.00135e+00 +1.76560e-03 +3.99982e-01 +1.30076e-05
+2.35938e+01 +1.51749e-03 +1.00116e+00 +1.51786e-03 +3.99982e-01 +1.29832e-05
+2.37500e+01 +1.29348e-03 +1.00099e+00 +1.29403e-03 +3.99982e-01 +1.29612e-05
+2.39062e+01 +1.08991e-03 +1.00084e+00 +1.09060e-03 +3.99982e-01 +1.29412e-05
+2.40625e+01 +9.03614e-04 +1.00070e+00 +9.04407e-04 +3.99982e-01 +1.29229e-05
+2.42188e+01 +7.31662e-04 +1.00057e+00 +7.32534e-04 +3.99982e-01 +1.29061e-05
+2.43750e+01 +5.71372e-04 +1.00044e+00 +5.72304e-04 +3.99982e-01 +1.28904e-05
+2.45312e+01 +4.20245e-04 +1.00033e+00 +4.21220e-04 +3.99982e-01 +1.28757e-05
+2.46875e+01 +2.75965e-04 +1.00022e+00 +2.76969e-04 +3.99982e-01 +1.28616e-05
+2.48438e+01 +1.36367e-04 +1.00011e+00 +1.37388e-04 +3.99982e-01 +1.28480e-05
+2.50000e+01 -3.04396e-07 +1.00001e+00 +7.21734e-07 +3.99982e-01 +1.28347e-05
