# alpha     maxMagU        heat      stress
#  1.001  4.5344e-12  1.8061e-02 -3.0977e-04
#  1.002  3.6247e-11  2.6077e-02 -8.4441e-04
  1.005  5.6499e-10  6.1049e-02 -1.4892e-03
   1.01  4.5010e-09  1.2392e-01 -3.3101e-03
   1.02  3.5719e-08  2.5199e-01 -7.2941e-03
   1.05  5.4502e-07  6.3304e-01 -2.2816e-02
    1.1  4.1956e-06  1.2814e+00 -6.2068e-02
    1.2  3.1202e-05  2.6237e+00 -1.9759e-01
    1.5  4.0057e-04  6.9835e+00 -1.2112e+00
      2  2.4429e-03  1.5255e+01 -5.8951e+00
      3  1.2913e-02  3.5008e+01 -3.3619e+01
      4  3.1751e-02  5.8401e+01 -9.8877e+01
      5  5.8984e-02  8.4933e+01 -2.1726e+02
      7  1.3669e-01  1.4616e+02 -6.7602e+02
     10  3.0256e-01  2.5545e+02 -2.1571e+03
     20  1.1843e+00  7.3780e+02 -1.9010e+04
     30  2.4512e+00  1.3624e+03 -6.6244e+04
     50  5.8366e+00  2.9410e+03 -3.1572e+05
     70  1.0143e+01  4.8771e+03 -8.7441e+05
    100  1.7999e+01  8.3330e+03 -2.5673e+06
    200  5.2152e+01  2.3584e+04 -2.2069e+07
#    300  9.9737e+01  4.3326e+04 -7.0009e+07
