# alpha     maxMagU        heat      stress
  1.005  5.8033e-10  3.3502e-03 -7.7078e-05
   1.01  4.6229e-09  6.6079e-03 -1.5217e-04
   1.02  3.6671e-08  1.3178e-02 -3.2939e-04
   1.05  5.5872e-07  3.3199e-02 -9.6646e-04
    1.1  4.2913e-06  6.7164e-02 -2.4390e-03
    1.2  3.1767e-05  1.3748e-01 -7.2081e-03
    1.5  4.0348e-04  3.6587e-01 -4.0616e-02
      2  2.4287e-03  7.9920e-01 -1.9079e-01
      3  1.2615e-02  1.8341e+00 -1.0687e+00
      4  3.0705e-02  3.0596e+00 -3.1232e+00
      5  5.5896e-02  4.4495e+00 -6.8392e+00
      7  1.2465e-01  7.6574e+00 -2.1184e+01
     10  2.6602e-01  1.3383e+01 -6.7227e+01
     20  9.8756e-01  3.8650e+01 -5.8964e+02
     30  1.9870e+00  7.1367e+01 -2.0541e+03
     50  4.6458e+00  1.5404e+02 -9.7195e+03
     70  7.9313e+00  2.5546e+02 -2.7064e+04
    100  1.4003e+01  4.3640e+02 -8.1495e+04
    200  4.0555e+01  1.2351e+03 -6.9896e+05
