# d     heat   stress
0.0  73.9088      0.0
0.05   74.008 -10.0179
0.1  74.2766 -23.5874
0.15  74.7318 -36.6432
0.2  75.3845 -51.3045
0.3  77.3547 -85.3971
0.4  80.4043 -129.123
0.5  84.9434 -190.773
0.55  87.9927 -236.016
0.6  91.7574 -292.765
0.65  96.4756 -371.432
0.7  102.528 -482.986
0.75  110.542 -654.296
0.8   121.68 -940.556
0.83  130.762 -1213.18
0.86  142.795 -1652.69
0.88  153.309 -2104.67
0.9  166.948 -2798.54
