# d     heat   stress
0.0  4.09795      0.0
0.05  4.10212 -0.218048
0.1  4.11188 -0.66483
0.15  4.12582 -1.16354
0.2  4.14727 -1.66629
0.3  4.21126 -2.78596
0.4  4.30891 -4.22321
0.5   4.4511 -6.00594
0.55  4.54453 -7.42305
0.6  4.65771 -8.92562
0.65  4.79615 -11.0572
0.7  4.96845 -13.8874
0.75  5.18759 -18.2198
0.8  5.47636 -24.4181
0.83  5.69942 -29.8632
0.86  5.97961 -38.2841
0.88  6.21138 -46.4189
0.9  6.49496 -57.5153
